0.008584539098531904;0.040474445247600264;0.047265099744212266;0.00849581829983061
0.0038878127724449422;0.04751195693732359;0.043943058825522296;0.013836591969508746
0.00045321349858836076;0.05299997240244885;0.04161371526128564;0.017483899046242073
-0.001824089511852766;0.05709863985846042;0.040182033976126116;0.01965802320633598
-0.0030489270476933544;0.05996810752084266;0.039552979894667536;0.020579248126095847
-0.0033261298977483346;0.06176852360507993;0.03963151794153372;0.02046785748182707
-0.0027605288508326248;0.06266003632665659;0.040322613041348467;0.019544134949835028
-0.0014569546957611534;0.06280279390105703;0.0415312301187356;0.018028364206425118
0.00047976177865116307;0.06235694454376557;0.04316233409831893;0.016140828927902726
0.002944789783589411;0.061482636470266604;0.04512088990472228;0.014101812790573234
0.0058332985302387026;0.06034001789604362;0.04731186246256883;0.012131599470741973
0.011926445338999647;0.059748310505719895;0.04879137713991429;0.013749748495586479
0.014978687312847183;0.061806300093166615;0.05183321054429472;0.015130245039882058
0.015891437702843934;0.060082477095454966;0.0515906698394892;0.011871837066034452
0.018502191774435902;0.060991990358612885;0.05581222151977693;0.013869172440339772
0.021317316329846268;0.05711919611670388;0.05404913690062033;0.015380620140241717
0.019785430132723075;0.058053642357305354;0.06151611249525907;0.015444660988558184
0.02033815024288976;0.05473604085648815;0.057972347718861644;0.014370815178816606
0.02116992289931346;0.05458890875808992;0.059006613813336904;0.013373679229813605
0.024183584419744813;0.05254563796273198;0.05526785556390893;0.013227067151029715
0.028238633294213476;0.05339031449198989;0.05962284699476854;0.01663032819091198
0.03202887321346808;0.05049430953154531;0.06032362266949882;0.020699074923504347
0.036998853939195366;0.04799036472801482;0.05972995120921767;0.025594100409937714
0.03822530255214076;0.04618366246420322;0.05753718299444164;0.029447610711343435
0.03927258472343846;0.04316410712683806;0.05776601218469986;0.0313602049604443
0.0392730994812024;0.04244496336809342;0.053851810581234706;0.03477587431284699
0.04156529950147039;0.041318641843085306;0.05205754539228409;0.0399541172948672
0.04160005947891392;0.035371469534814605;0.04833966668878622;0.0458106205488716
0.041524517134683844;0.032469534586138715;0.040851050457011366;0.04493613840405315
0.03880582316214389;0.035495667676691246;0.04000593806113048;0.048025746428571034
0.04054726383883555;0.03993010721641005;0.042520030009806524;0.05192501503432438
0.03926815278849234;0.04213317130271275;0.03921944048741363;0.06123394742628244
0.03613624151912323;0.04627502658613862;0.04091852561359856;0.060519078660345726
0.029439095313173607;0.045914777508989105;0.03773028071951554;0.06060756332036533
0.025118672053611703;0.04490030485387313;0.0358128460202675;0.06168063266590309
0.018340192101012863;0.04670029598659612;0.03772182527884868;0.06122890661098313
0.014634593101339842;0.050290800254330685;0.04139751932396139;0.060406087805491074
0.012832145984635139;0.049295646532853094;0.04009549742628239;0.059142847898331824
0.013139762823144432;0.052613288847008007;0.04510876672278456;0.06369858934782506
0.014091516619483196;0.05197089321183307;0.04752496958744622;0.061967419044784845
0.013843006466165073;0.05054542705165004;0.05127548269270939;0.06354573359234938
0.010930646786531282;0.04595832103432418;0.051804728918273237;0.0594664387571092
0.010873531732592114;0.04530666798724987;0.05370701919810317;0.06004511914743282
0.00934026171820835;0.04130021032657653;0.05322278769107472;0.05670591047924061
0.012371117211833689;0.04051074241124468;0.05452899249231697;0.0573146681827385
0.013038482629617223;0.03617771857012016;0.05168458859365727;0.054196501307615955
0.011640900116050812;0.03125320579045366;0.049823922981038785;0.051463305429878176
0.010882726265446016;0.026638895900293547;0.047669156127491834;0.048516024928080236
0.009529177974501226;0.02199716698201965;0.04232119362079032;0.04351762445635738
0.009367546614906606;0.022019246359594093;0.045813039354363365;0.045291473525007286
0.00874056878555076;0.019824735919581137;0.044113548656422995;0.04518184983491264
0.008696274397842272;0.01886199719777659;0.04556189218535387;0.043827130390322926
0.008165280781627836;0.018436123734226435;0.04691652870643921;0.042691114983654
0.007229134357959922;0.014974693257600145;0.04313013212193446;0.04029638599869161
0.006183336169009306;0.011293600644981684;0.042678788310885105;0.03969365860673348
0.0030867645609675624;0.012195302936580324;0.04196102343118597;0.03973069660215689
0.0029936731990846044;0.009708448246485538;0.04060863068322913;0.040053498345864004
0.0032857628643347;0.00787665223863989;0.03692761994475255;0.039137608612944824
0.0056733605671787455;0.007866265303693916;0.0356263066815947;0.039971453640731694
0.00495058175514863;0.00830359010493611;0.03532253994377188;0.038818230233409
0.0032832733004249815;0.005322215218371987;0.03303691200130714;0.038263997964039974
0.002545101321673731;0.00882484775678316;0.03635067546028056;0.03611869617718153
0.006593858381497123;0.012653055959463793;0.03686889075678266;0.041061827599541696
0.007954202267734434;0.01313864432526952;0.03547182409251327;0.041766522534487684
0.009434543203661225;0.016070209981366306;0.0345865180284401;0.042340215720496156
0.008887785331807663;0.015620662324942611;0.034174170000326326;0.040355526644327504
0.0053850534243216185;0.01637459831513548;0.03510645566165354;0.039569144193526626
0.006447698651193225;0.017615782615887362;0.03304931815004857;0.03908406982412492
0.008329882737168972;0.019983808614252814;0.0332372307718204;0.04005063598234656
0.008085802626348434;0.021182059302713118;0.03603556097352031;0.03921302734194116
0.007732146326250373;0.021772884360575166;0.03612196995619433;0.03792678761523303
0.013313967199411494;0.02460254949525973;0.040054902732264995;0.037773704937560666
0.014310512235697782;0.02713427201667183;0.03942883976822441;0.03651325933801839
0.01570246064400112;0.028941458642039484;0.03936399276724367;0.034090435862372745
0.013383655539064907;0.028992526742399105;0.03981100959365755;0.03225073204707365
0.016034363645962453;0.029793319758417394;0.04106823627492584;0.03131501797352016
0.01823417669924786;0.02934261977116667;0.042822303528930405;0.030136312725726772
0.016961171672768692;0.028469486140241567;0.04302849512193466;0.026400586187642523
0.019165421466165178;0.0310857357548214;0.045681920266099366;0.027519775586465654
0.01932961022066006;0.03364367062405968;0.046789935266099376;0.02962549525106184
0.019891756433474614;0.0331743153958805;0.046712448525661344;0.025517260244523873
0.021729262001961097;0.03681487771690046;0.048890007967962876;0.025502030780319967
0.022685292059169318;0.035492126201372515;0.05112395815756719;0.028307989086302318
0.018674254749591057;0.03601050471297762;0.05174317742922455;0.026534114335076422
0.01658712626054234;0.03547599557992756;0.053397809051977004;0.025507122778685422
0.014905555984635156;0.0358613186626343;0.05558819534521003;0.02502100109447485
0.011998679936253328;0.0359264387734548;0.05597476027329104;0.02507057224517768
0.009062557374632015;0.03349426802419043;0.053203521970250835;0.02295346233507645
0.00795106799019276;0.033645408703497366;0.05477215129225154;0.022923832086629306
0.009357736445897106;0.035017678907158595;0.05507895192284976;0.02496329557371652
0.007333946562601994;0.03408344901176799;0.0551383503775735;0.023401876813337368
0.009034021525661809;0.035731446684536844;0.056006262679306;0.023366341704478193
0.007690371163451943;0.037527808907812425;0.05621710621804414;0.025893887492644176
0.0059824244030727515;0.03435375960215704;0.052445497089243995;0.024202293292578916
0.005376986162144339;0.031472032133049506;0.051309706566197266;0.02537118238541968
0.008429300846354862;0.03321892569140183;0.05240552729878958;0.026367174437724343
0.006159620177835702;0.03367104455802484;0.05045692965838417;0.026275559960444134
0.005223114449493126;0.03273749926936847;0.04690167697515442;0.025408056233082246
0.0064159806557697865;0.03237246117620086;0.044203801351094314;0.025100705999999664
0.007451729647924047;0.03202344499705727;0.04159847337790041;0.02578453414089532
0.0074432703605752555;0.030168563595291995;0.03888242104282361;0.022655657486106096
0.0058482809238312;0.02868781522294808;0.034951879186988485;0.022475942155606
0.006234632843412751;0.02568959714874089;0.03611628994540634;0.022948902630924767
0.006254388404380314;0.02416444690029374;0.03608561147172205;0.022650889635501388
0.0067797283994767525;0.023921294017979235;0.03538672697450075;0.022506470969270595
0.005338792102647732;0.023054240748610136;0.03381905879143438;0.022402866608368304
0.0016949538910753697;0.019077220127165288;0.030160985706439315;0.019528724353709923
-0.0016506016296830223;0.014580683123569424;0.02412458187217988;0.01479091556652465
-0.0017741270052959099;0.014556458167701573;0.02074648494050298;0.015402849609349123
-0.0012544922772801466;0.013456106450800686;0.019413497746321954;0.015359372845374022
-0.005015504148153008;0.010802981338345606;0.020046764911735467;0.012238581289309977
-0.006600134631317321;0.009796902741745496;0.019267528926446172;0.011761168995750108
-0.008180540501536337;0.008563249259888678;0.016120922547564198;0.01253203688035286
-0.0071678378235370335;0.00837992920333422;0.013900975714285344;0.010488374683229554
-0.00691846224458965;0.00958435665151997;0.01356568318175849;0.012159642528930821
-0.006976140763975055;0.013339560214775902;0.016259184204968642;0.01279734269140217
-0.007753529564890395;0.013461937768551629;0.01321104709610962;0.013430765990192592
-0.008462191344883845;0.012588059448185467;0.011669499787512052;0.009560322266426759
-0.007513865006864911;0.013346099599542142;0.012176903593657902;0.008210648504086166
-0.004303947509316717;0.016842008738149523;0.015629172805164883;0.013334032615887337
-0.004013358429552098;0.015842487143837687;0.014713456382804644;0.010181248313174142
-0.002570125520431466;0.016777616230467304;0.014520162970251556;0.009915998500490245
-0.0005934888692382883;0.018285102203007282;0.019284180639424463;0.01270183367048041
-0.00035154597515523226;0.019429924655769638;0.023696467072572495;0.014491942233409466
-0.0010263011601830611;0.021191802411899094;0.02320380957502425;0.014326443184700744
-0.002365397389669833;0.020293285290944537;0.024212017784896716;0.015464038407649395
-0.00553617800359589;0.018391511881006625;0.022261952152337065;0.01488271517129761
-0.006619983147368329;0.018842635210526065;0.020868869123896405;0.015162087766917052
-0.0071937646648577176;0.01938313156456336;0.023215899183719864;0.016511202938868694
-0.008651347120562182;0.02129381888819848;0.02583886573913013;0.017775534297809432
-0.009324999431774996;0.023930618579273928;0.02904731687446844;0.017506934683556418
-0.011788159353644854;0.024276060840143443;0.02865885293134975;0.01673973489800565
-0.011115244933572873;0.02514513261719481;0.02891043355900584;0.019468467055573525
-0.00902650872043137;0.025375745709381822;0.029491292165086235;0.02011744661425279
-0.010337324151291129;0.024511532998365178;0.028932498827394175;0.020439916366786257
-0.01089579905714268;0.025766181210199145;0.0315355063824775;0.019834182867930473
-0.009782061514547071;0.026137970847989227;0.027471600733899572;0.015890581030401984
-0.008763023622425465;0.026797287871526326;0.030125725150375506;0.016263858568486216
-0.006479939764628815;0.02768967311082018;0.03165780581758697;0.018762242445570235
-0.0053300964318403355;0.030710800390976994;0.03287940340764909;0.02065594898953886
-0.007108206786858237;0.028842236587446474;0.030141693991826965;0.018420977122261935
-0.004374222969924665;0.03164017344328167;0.0320220617097086;0.023832130563909475
-0.003197726404380377;0.0332269959986919;0.03267189238509278;0.024759674910427975
-0.002268668826740673;0.032427574098724564;0.034399739706439565;0.025504371380843133
-0.0021975307263810313;0.03135625939980339;0.034090040774435594;0.027079499985942824
-0.0023911494540698273;0.031261646478914204;0.03448750960607993;0.030709024386400448
-0.0014745726603464465;0.0313427394380512;0.033329113743706604;0.03238386230532819
-0.000569308716900831;0.0333701347904539;0.034397423415167876;0.03580427991794663
0.0021964904746649833;0.0357292398130102;0.03590613124877364;0.03945707566230741
0.003080736050670174;0.036103769792088375;0.03681168846485731;0.03988357242726333
0.003182758971886282;0.03438470176462846;0.03990777870970847;0.037496115464530425
0.00329616970382482;0.03233040041647547;0.039184566265772554;0.03694861370022838
0.00618878842432166;0.03139739227492588;0.040214738394245886;0.04154249790617791
0.009127626994115668;0.03058352368617136;0.04070874717358555;0.04257949349231714
0.0076797406766916905;0.027525303762993947;0.04172325973291863;0.04074975630402035
0.007800760449166379;0.02574342246387666;0.04019261651912335;0.03785228046616486
0.011221049015691317;0.02790662356096717;0.04230897520464133;0.0382774572602152
0.01236646966753828;0.026944020006864546;0.04298236889865907;0.0424274375237
0.011599425690421623;0.02456853849525958;0.040762149562928486;0.04000949617620086
0.011669780925465736;0.026205593383131408;0.04007268430140507;0.04122834045472322
0.012678334321019773;0.02759610970643952;0.03922835297613537;0.04435548776593594
0.01600041047139571;0.029235191325269232;0.03944728922850548;0.04526657293298401
0.01547855066394226;0.02819053190290899;0.03929129813141488;0.04436449719516113
0.01595349831578925;0.027824642236678174;0.042294386678979404;0.04593636885158481
0.015988381304674438;0.027296118929388193;0.04193162736940107;0.04861479631284658
0.01785439098626969;0.027104687404707006;0.040655463073879655;0.04920965491042752
0.016619275048708443;0.027211716275579882;0.03828256675318669;0.048430381203006814
0.015040680651846727;0.029221276996403693;0.03909295451193137;0.049839763640077764
0.015225667384439113;0.029863724446223882;0.03929950890062049;0.049065460017325244
0.012614970209872288;0.026796755523373305;0.03935962403236294;0.04655256447891395
0.009872874353383292;0.02664693892219649;0.03852652186106521;0.04598504406930304
0.01091767962013711;0.030980044613271914;0.0392879148300092;0.0481644482451775
0.011184973994442453;0.03248369005818854;0.040380294837527975;0.05227630563223203
0.010429816753514001;0.032602324735860916;0.03987382485518082;0.05144557822523616
0.009119067843739519;0.031008830638770357;0.04020889343380128;0.04972136208760949
0.008371973136645746;0.032993282187642525;0.03843381938182354;0.04784213161490607
0.008895274946387517;0.0345328106858446;0.03975534187381448;0.04977254664007766
0.006629818902255452;0.033618207654788665;0.037894733692382554;0.048883823375285254
0.004782587858123397;0.03617794413599159;0.03952670989767838;0.048653860794376426
0.0046293799369073975;0.03943929354233362;0.03997992300457615;0.048849139962405315
0.0049530264553775205;0.0410041893301728;0.040891713826413344;0.05015680360182995
0.004528197131088549;0.03840245901144121;0.04177151651356602;0.04763621511408888
0.0037835608058189025;0.040301267670806946;0.046319165271003056;0.048556469323961404
0.0038715679722132017;0.04185209149754767;0.0482529891742394;0.04897452458188881
0.0056192214795685366;0.042891060734226265;0.049818586345537146;0.05055302719319967
0.005280177635828774;0.041152592629943835;0.049882761356651886;0.04735362210330105
0.0035663246593659118;0.04217571321837144;0.05091500597286634;0.046485342229159204
0.006971669081726123;0.04403459447793334;0.055125290403726074;0.04938901556260143
0.011163781097744315;0.04569994676887804;0.05862104207780247;0.051413764480221495
0.012533850720169964;0.04522263530630858;0.059646034382150326;0.0515470694596266
0.016207335656096722;0.047915028323307594;0.06434804590552387;0.05319319035011368
0.0228156643023863;0.05068639813893364;0.07009695407976378;0.05732817288427518
0.02647440228571414;0.049977742746321656;0.07212141052173819;0.060496751199410816
0.03222095265707723;0.05291987611474261;0.07482290452533404;0.06258873713141466
0.03519663712879999;0.05182655535469033;0.07535700338868807;0.06291981605099616
0.03770903996763614;0.05234517958581161;0.07621626790160074;0.06408738431186568
0.0392127627384763;0.05227510632788415;0.07642319842693583;0.06499631858744602
0.0425249200235367;0.05434850105393838;0.07923803902974715;0.06544770072670716
0.0444723448015687;0.05374186414612541;0.07837197739391846;0.06685323603628543
0.047133538014056335;0.05230239269238229;0.07753308910264672;0.06576131957469665
0.04994319552369995;0.0517415463975147;0.077848253791107;0.0691134406681912
0.051493194095455365;0.053120684630597347;0.07771804577770394;0.06895301908205188
0.04991193269303632;0.05465466695913611;0.07738148162503969;0.06820709608172505
0.05274615962471325;0.0533231134998357;0.07591084974305207;0.0695260281108195
0.055605611635174086;0.052621985443281276;0.07508118404216943;0.06954374480974071
0.053044118682575254;0.05079926135142117;0.07293397716770066;0.06634514768584404
0.05314453329257856;0.050883746749263624;0.07243755583883503;0.06713836761490587
0.057244612649884806;0.051632164318403846;0.07114592611768439;0.07085563747924055
0.05973256389342838;0.050890121975808195;0.07252334550473893;0.07031999983033566
0.0578963483863999;0.04918111220791016;0.07114592913664475;0.06812223385354584
0.059583845113761774;0.04797436844393503;0.07095816883425846;0.07052124083785444
0.05945372943837769;0.044380613002941306;0.07066102857665792;0.07145273083033563
0.057342576968289476;0.040338812570447184;0.0676870180542651;0.06979141728179042
0.05389675325498466;0.03616489221641012;0.06257097655246736;0.06651518948054838
0.04725157000751842;0.02566448465740427;0.05448988293004207;0.059733346650212
0.042938271312847276;0.018713327821837517;0.05031783002190253;0.05414003766917283
0.04472536762079113;0.01622332411082122;0.0489168201595295;0.05350973301569156
0.05369815754200721;0.018053487608369716;0.05191530306472761;0.05711933857142906
0.06171377827329193;0.024160834578294696;0.06266281499378945;0.065366830336712
0.07544508650277856;0.0425134038640089;0.08067056093821567;0.08008101921739202
0.09157403474762958;0.06500801457633294;0.10730139757175566;0.10061513268388433
0.11058514553154555;0.0963508968293564;0.14460559809872459;0.12636114251683614
0.13274175460738682;0.129369449979078;0.18452187332657596;0.16275707673128476
0.15562006066982526;0.16468225873226483;0.22363068255279292;0.20640013116410547
0.17387204892252184;0.2059013930676679;0.2590745377538383;0.25579788882020144
0.19019690668355455;0.24647754648512393;0.28954843932820845;0.30723574168322765
0.20657028569270772;0.2844917803033645;0.3120254548921179;0.36136442967374655
0.22321613914841193;0.32067533920463887;0.3294257230509932;0.41253285327982603
0.23460127378979775;0.35200474525105874;0.3452638490977403;0.4580312567541632
0.24091511913991193;0.37880909251585054;0.35345698667537984;0.49752886290748055
0.2450912286587087;0.3978516048558302;0.35676113794769077;0.5292127176260153
0.2439791933072864;0.4075996846913969;0.35548825020529123;0.5504920080728927
0.2380726361046056;0.40828076360411314;0.34613402262895876;0.5624146213991426
0.22704761655344496;0.40018967079960166;0.3331132805688083;0.5636331528702109
0.21436606756031001;0.38305771678881356;0.31757956803856946;0.5564105331101583
0.2034945255828664;0.3627405387835831;0.30271848409806595;0.5437721725789387
0.19525143045308552;0.34030176137626034;0.2899677089682849;0.5276440224965588
0.18452547582967935;0.3164687640477219;0.27888516989571216;0.5043534265119232
0.17293936757600178;0.2941243687286636;0.27482862241483624;0.48164206134291376
0.16523456907551162;0.2742102742356925;0.2724672472742675;0.45577790206929514
0.15805308501928428;0.25275188571820345;0.2742353136672067;0.42847873791041996
0.15028533897613308;0.23279389989473215;0.27635708823830857;0.40420795978587
0.14233543406701266;0.21408707699509205;0.2736636690742028;0.3845747903066287
0.13027283136645715;0.19788360131905458;0.26519707876952825;0.3649146550199342
0.1210142972147738;0.18770592236907127;0.2548557612376552;0.35045423601012743
0.11404045015756573;0.17849058227263478;0.24246410479796915;0.33434193236808796
0.10890448967374758;0.1734008989375581;0.23021661458417395;0.32173577306341355
0.10839003315887352;0.17299159242366477;0.22213418580352678;0.31010192439849066
0.10779533738574514;0.17655114198855534;0.21697622017227491;0.3020823891928682
0.1091084812180433;0.18391837095946087;0.21403096799999652;0.29607499906831775
0.11222051933049836;0.19108301067113134;0.21358760690682896;0.2925279541389291
0.11554089869532345;0.19810279549623752;0.21639470854821508;0.2925430266632836
0.11888642166263301;0.20559910692677028;0.22373757660705781;0.29506023266687964
0.12229173533572872;0.21140243597776726;0.23176689727525;0.29714427184438863
0.12475531389604251;0.21509424933605423;0.24114044289604092;0.2996050493422638
0.12705695209741547;0.21682249641647264;0.2510262386139224;0.3012706524141828
0.12851563908237779;0.2170674151601797;0.26015033579143126;0.3034082671771773
0.12887618576626136;0.21600563898953568;0.26766741583654385;0.30391571354657904
0.12866002442301197;0.2134129096194801;0.27298019505295434;0.30342703949590893
0.12753832842889623;0.20764916970905187;0.2745133390853178;0.2993103882520384
0.12365893587315904;0.20073414774174225;0.2736411284772759;0.29357817347923676
0.11756666911212607;0.1937674556390944;0.27190290544425844;0.28779553002908975
0.11102169772703294;0.18740758671526303;0.26771328635011;0.28277665139881847
0.10472708424942591;0.18016007116344882;0.2599607647486063;0.2767733622964974
0.09996809859561753;0.1731562547247434;0.2506879121180081;0.2706414080954514
0.09492732997253817;0.1662697861850247;0.24090319624615472;0.2638714584429506
0.0891370475083343;0.16009744258711703;0.23081109728996002;0.2578914022471352
0.08311220418698757;0.15434547159986642;0.21941773248937177;0.25113512069924376
0.07720913136253524;0.1490677656600169;0.20887112392153928;0.24537801649394808
0.07191871907420584;0.14471525760673162;0.19980834572245473;0.24036007181039154
0.0681713984282432;0.14015724666655524;0.1931475118116997;0.23668015085419675
0.06544462340993662;0.13670528213664357;0.1888187601356619;0.23370513629780587
0.06342859556227408;0.13362238477802973;0.18553148479012427;0.2309197576086919
0.06155459806276447;0.13001526538116814;0.18312829956488738;0.22810027776593292
0.0595037074851248;0.1280643112327537;0.1824352163360546;0.22566184976985584
0.05852705060150277;0.12791833479241377;0.18317713069434166;0.2245385722739422
0.05847930998169242;0.12825090029617317;0.18452201618012137;0.22444998376004877
0.05851566744197362;0.12940164491042622;0.18692536210591418;0.22431742184177483
0.05947344556587036;0.1300617032906158;0.18954788353187035;0.22455258512356635
0.061683576884275025;0.13092875113337493;0.19304259870643714;0.22527979960934602
0.06348980002419002;0.13309747126871332;0.19724985640633907;0.22752526902909104
0.06579256260869472;0.1364123984485106;0.2014681605845018;0.2304371303971852
0.06858397021673658;0.13887346441483947;0.20453976593951975;0.23289911922065692
0.07198886768715175;0.14063458704478388;0.20619960567766946;0.23564817339097408
0.07493851072605331;0.1427250920961078;0.20872824660444286;0.238712567544619
0.07741369691467696;0.14523417320856277;0.21159708216966022;0.2414439213573028
0.07953623716639315;0.14786306362765392;0.21428045636907173;0.24452384513958453
0.0819812036946703;0.1495818125125836;0.21691863221444593;0.2472224287188587
0.08469671795455908;0.15106361265642138;0.22064115471101334;0.25098052057109793
0.08727660630892316;0.15272660265772897;0.22297380685190904;0.2547100061935235
0.08886013645308789;0.1530256029081376;0.22358747928897998;0.25730558733572684
0.08883186596861582;0.15266523573782054;0.22293444334945717;0.2583487578656385
0.08767225063321209;0.152748100070609;0.2217738352788459;0.2588331670594928
0.08633761150866157;0.15365759865119083;0.22119081662667195;0.26070136693265383
0.08426079956260074;0.15520414314350856;0.22027853335403377;0.26330308315429485
0.08133751902778547;0.15590531963223037;0.21885318846485435;0.26456460538574306
0.07738272941712845;0.15484120849787275;0.2164210734599508;0.2647742560715881
0.07353528802942012;0.15358322384962164;0.2142931640317063;0.2648696015181392
0.07068845801765164;0.15173087733278603;0.2126783252631545;0.26482018573847266
0.06823524446877952;0.14990302386400545;0.21085677333507352;0.26552045748021824
0.06531128590650434;0.14778991501863123;0.20814630661653813;0.26572878321804105
0.06402336980843307;0.14709753465609443;0.20717820168714937;0.26604618706210775
0.06346821811931895;0.14656205748643114;0.20683074550735206;0.26695913191205867
0.06358688627786752;0.14596021869205392;0.2067786470836842;0.2692403672824411
0.06439350949100907;0.1459272515498506;0.2073269538427558;0.2718440404792375
0.06537176858809964;0.14586267042301176;0.20698830884962077;0.2743768794478546
0.0669213190049025;0.14584172803334192;0.20747542810591374;0.27740599586858034
0.06837676610787732;0.1452017503429202;0.20802386039195492;0.2798923342422318
0.07034749182085544;0.14465696360836644;0.20895177751127497;0.2828880587113393
0.0714668935642356;0.14401270916998787;0.20819621973291602;0.28426268915854425
0.07203873286989101;0.14370125183458413;0.20758436530074867;0.2845388039810352
0.07319546499869123;0.1440222625367744;0.20779091102026478;0.2856252898901558
0.0736670664099367;0.14461768497744126;0.2081454261987545;0.28699257961228725
0.07300089286335285;0.14407251432788265;0.20780667020921548;0.28867606958025055
0.07050622968813225;0.14232127278424095;0.20688892699934291;0.28817771933147635
0.06710354668976679;0.1400578843461893;0.2049899849640373;0.28639827595422895
0.06411295514285605;0.13743560614318182;0.2033886188708696;0.28474167289505936
0.06226199332036506;0.13522612206407106;0.2022357385707716;0.2831009043350724
0.06083234461850172;0.13338360169238098;0.20184093310002948;0.2815744074256248
0.05898302496698164;0.13165626015495047;0.20060939444589415;0.2801696338512542
0.05753213238934193;0.1303866852729629;0.20014204653742737;0.2781032507590673
0.056942687556390016;0.13031394109087727;0.2004268548819845;0.27608202516017877
0.05585598573978332;0.12942291422785016;0.20052696186433167;0.2746067722706725
0.0546891136593649;0.128128388525333;0.2003746026315759;0.2732515001559291
0.05417903934520995;0.12756206818044913;0.200839565170314;0.27251999122196374
0.05377087912193435;0.1276755588009133;0.20175940832199749;0.2716840002052916
0.05373877006995661;0.12782763213729778;0.20262319005295532;0.27151760483719745
0.05343635040568726;0.12814023313435566;0.20289162450637152;0.27157944059103856
0.053772595110819665;0.12912534710428045;0.2035711083141518;0.2718682428267366
0.054453882785223055;0.13046992749362335;0.2040959079931319;0.2727887723841083
0.05535842572834173;0.13136344798724878;0.20503990251323642;0.2735851535550792
0.05521932116966245;0.13144526512520233;0.20552846130238325;0.2742383970781259
0.0540388644910093;0.13103562364203789;0.20561277546975823;0.2752072251487373
0.05253337511474257;0.13043346762994243;0.20566499501536137;0.276379160218041
0.05170584013762586;0.13098574967668974;0.20603599721444602;0.27758588499901515
0.05203058041843658;0.13176236877214573;0.2063263317446847;0.2800608335073511
0.05256718214220253;0.13204605687054394;0.20704883947564248;0.2826690706969555
0.052649476045765795;0.13254392902909243;0.20752719687119656;0.28484133400718764
0.05266318877770434;0.13397257917914146;0.20895043632167057;0.28727935346910327
0.05255241944262751;0.13493277285583324;0.2088417222572704;0.2890967510196099
0.053025908983980866;0.1354830351516815;0.20938782082706442;0.290629806947364
0.053696224853872994;0.13634476870088055;0.20923343648218043;0.29206554622784775
0.0546444900339972;0.13740940246027902;0.21006478563582548;0.29487844578914246
0.05565338905263072;0.13818051719777488;0.21101509261228835;0.2971850719489985
0.05626338645897265;0.13860774558417568;0.21177077035174574;0.29922352052108087
0.05615658321281377;0.1379942847224562;0.21141189438051328;0.3002584706917248
0.05568239019254573;0.13735843068715053;0.21027313756161825;0.30103605551225443
0.055301470444261994;0.13738033452075635;0.20940850656782944;0.3014861833530521
0.05514598976430123;0.13761201034193976;0.20978944839620478;0.30193278641124094
0.05495319586629536;0.13739183546224049;0.21045416149885263;0.30330762721640603
0.054538414803202845;0.1371122008676017;0.21104991703726392;0.3039456625661935
0.05352422926740684;0.13712844901307408;0.21124337398070941;0.30497194872114614
0.0531624894253016;0.13757209986989005;0.21224434696567185;0.30701404373945274
0.05325428879568409;0.13817074741255106;0.2135269334985257;0.3091059444236632
0.05404520112716495;0.13981102330303813;0.21536277628603792;0.3117694327672395
0.05457599013272233;0.14071306668780442;0.2174871960964335;0.3140795533501097
0.05522332963452031;0.14165203760379;0.21981001750931348;0.315482915110162
0.05617088965544216;0.143118055801894;0.2217296561363157;0.3162037418260822
0.05824284423242807;0.14554984088067782;0.22412542561817256;0.31775641374239477
0.060561726710688935;0.14803010455900406;0.22595939768126505;0.3194835479663241
0.06364559232265356;0.15089051761327008;0.22852798379535463;0.32206521239979896
0.06581166556946622;0.1536941194975459;0.2303541397593951;0.3248292169002894
0.06738824522915887;0.15553608222752302;0.23218256615658364;0.32766644280319873
0.06843587779437625;0.15600555624321444;0.23340498898136297;0.32931625917652335
0.06906184926184925;0.15664072329813428;0.2343384649816898;0.3310902883778963
0.06867490243314708;0.15654393917292997;0.2345565486541318;0.33155079845112284
0.06831897573259134;0.15724847151879462;0.2357636401046058;0.3322312147809691
0.06846212896698166;0.1579907111062415;0.237338761250732;0.333387159897674
0.06767497759692609;0.15850573204576424;0.23897526965838156;0.3345780852209822
0.06681072283981594;0.15870097724811794;0.2403096629329811;0.33623966239979886
0.0658470556116368;0.15851105757698353;0.24160157017064043;0.3381692781977719
0.06521735821575579;0.15894389851683316;0.24322441518992774;0.3407868684844669
0.06510109894344457;0.15939789377901029;0.24555319328963354;0.3430112781471017
0.06491519816312422;0.15928604823340714;0.24740999571264757;0.3449012876704754
0.0647875485008163;0.1596449925145448;0.24980665419515813;0.346673822542329
0.06487575661948256;0.15926112833670894;0.2520717101294504;0.3480232680836822
0.06556977607224489;0.15897566821673512;0.2542215648136609;0.3492143968332736
0.06731393886891049;0.1594392004292229;0.25644086569009106;0.3512509727097038
0.06935309284079672;0.16093991684994863;0.25994582842987524;0.35450929440927875
0.07112984118241165;0.16261615993723205;0.2636985849035594;0.35806475829224715
0.07336370509643585;0.16389680771330276;0.2672723147848933;0.3616622776034599
0.07575848499084577;0.16583163911376034;0.2707693256851873;0.3655029603367061
0.07870840618764206;0.16851122959986692;0.27436102769662896;0.3692050529702463
0.0822120525867921;0.17221621765674816;0.27796096764007444;0.3730100106995696
0.0861789287162461;0.1769152063448815;0.28231547190388606;0.376944225783257
0.08965065523863897;0.1814092649875751;0.28584768372408864;0.37920941498887967
0.09381989809022441;0.18642553114383528;0.2899197188054878;0.3826751503854144
0.09824054658515735;0.19177790613010523;0.2932931481379493;0.3860700480075131
0.10200282871951487;0.19706352110493353;0.29643492816442857;0.38927014780189023
0.1061392449888839;0.20247524102974548;0.29982283503955104;0.3926326104386997
0.1106606323814958;0.20721319177835607;0.30373818795422897;0.39593765579077533
0.11548633171036135;0.21217679313991206;0.30805793848185226;0.39872460096370765
0.11940353525563753;0.21593480865870895;0.31182982379600716;0.40063457938737546
0.12233358189277381;0.21846302826021263;0.3136837393403025;0.40177437547890865
0.12524428533769033;0.22086049204968625;0.31530258695390173;0.4027607302585752
0.1274445446874778;0.22206842415364172;0.3164892474033951;0.4038355161229099
0.1295055500353038;0.2231638728581203;0.3177743318908093;0.4046095437907752
0.1312223268506029;0.22408506580287343;0.31827985330270847;0.4056217541860023
0.13157052413664402;0.22453682989081059;0.31937565993984485;0.40649206052140596
0.13183951528996204;0.22447725589277204;0.32023174430140083;0.4067962951075452
0.13218662395096234;0.22412566266197753;0.32022665164497716;0.40692719442366165
0.1324963364936233;0.2241607344004542;0.32032705257567345;0.40769280067080127
0.13219282476070404;0.22418427148316095;0.3201666514266051;0.40877997495488094
0.13151412421477401;0.22380887044622078;0.32020718633049516;0.4094381128895001
0.13059273715396982;0.2232715082618468;0.32049378820823315;0.40972223712454425
0.12902727241941606;0.22269100805132047;0.31991651630957346;0.4098597395537695
0.12770513300195938;0.22208279069074519;0.31978981750604285;0.411071891661648
0.12659951227590513;0.22139196250342905;0.31953260641058673;0.4121198882435374
0.1252921203909754;0.22058199779273932;0.3200173998980009;0.41327088119188654
0.12335795630369202;0.2195300526394212;0.3209224928283704;0.41428214256684553
0.12186498058188755;0.21847043691925125;0.3225663381454675;0.41545669143739156
0.1208615667862027;0.21811341608564552;0.3241395729767849;0.41681590184275275
0.11960782373814781;0.21816327084439016;0.32467347308433636;0.41866709933408974
0.1188353428607369;0.21830988189407965;0.3243407977074157;0.4197032931343513
0.11862967150343058;0.21881410651421693;0.32492178271591526;0.42091273669335744
0.11803015797613409;0.21916522471885896;0.32582531253415653;0.42173010396959143
0.11789270076103113;0.21956218705818553;0.3268593231019891;0.422743322824119
0.11771448307878205;0.21958631753023522;0.3270323078780597;0.42377888772702854
0.11789042152369868;0.2200820743105556;0.32796217846942943;0.42518322602483827
0.11799724024975297;0.22058108304216728;0.3289092901954837;0.4263741896139197
0.11795236038803344;0.22105957863909434;0.32904727492186486;0.42811578355180785
0.11750980440078276;0.22081014816835223;0.32917302673258725;0.4293329097178752
0.1171320583095765;0.22072205581856477;0.32999136699313003;0.430870355684531
0.116955327867602;0.22065250241810713;0.3305345497721427;0.4327815471438315
0.11748468790225385;0.22106207674991493;0.33118677626969095;0.4351255103543576
0.1175903833641695;0.22127552178489365;0.3318880139365755;0.43763594667210853
0.11801786376953072;0.22146177850800583;0.33283873383490836;0.4409577588849231
0.11795273826838658;0.22161933389342586;0.3334708041719465;0.44449589796272637
0.11814671295259709;0.22245154058319375;0.3343295673595897;0.4484527890156848
0.11817963602451599;0.22317987633441966;0.3357429392762291;0.45224833868943437
0.11909076896894226;0.2247023202121574;0.3375106968613876;0.457203037621765
0.12053183241712792;0.2262750633308236;0.33968577886008;0.46231112458449797
0.1216280210460916;0.22809435987479226;0.3417599740938164;0.46739953069433754
0.1219564413563237;0.22937111584210182;0.34373593633278343;0.4706637688041774
0.12189452838639891;0.2308623067309544;0.3464821800098019;0.47388415675252643
0.12194269951944892;0.23255971809447187;0.3493322072435384;0.47735883166328147
0.12192119883458456;0.23413549148642995;0.35184157656096243;0.4808335797868512
0.12154517838018773;0.23534625546779644;0.35423323080581376;0.48306831473291195
0.12163625999705599;0.2370022219022521;0.35776674424059624;0.48532289986138527
0.1207468296263466;0.23814486361915302;0.3614447277456632;0.48703194598724336
0.11994046591761827;0.23916266175776035;0.3649226605292526;0.4885795957888124
0.11875509775776212;0.2395876545348117;0.3684330533680886;0.4886600472461515
0.11804628390584973;0.24014049189440634;0.3723716987211452;0.48973696119744276
0.11764939368257413;0.2406765116727653;0.3747535991372942;0.4910746487100285
0.11753227346387525;0.24114728038345498;0.3777291585681539;0.4919071751654061
0.11676729720790924;0.24158492698986234;0.3807740242052903;0.49268262158809323
0.11649423480320183;0.24242447373585774;0.3840602537021846;0.49404866991434354
0.11619841038509134;0.24341046802386032;0.3868826843720113;0.4950617677682173
0.11654047420856309;0.2449017193501107;0.3901309327881602;0.4965172216162069
0.11698615827852059;0.2459603399169626;0.3932260695171566;0.49820102171395125
0.1174244806289619;0.2472809731807743;0.3958507639970519;0.5004408441964618
0.11762292160869385;0.2484445230653771;0.39852969888982726;0.5019519319349383
0.11741109644654935;0.2498044093504376;0.3999683135240214;0.5031698773543565
0.11689457673291742;0.2513761221791398;0.4009048332909387;0.503722942785543
0.11672534541778176;0.25335703455573344;0.40262386906014425;0.5047551201000249
0.11693970343281936;0.255068159761683;0.4032686187047994;0.5049019766747225
0.11667334774272457;0.25675307838410866;0.40358678824353744;0.5044440117394496
0.11623207684144966;0.2582566170657039;0.4034894782438644;0.5035833036819143
0.11679795792056048;0.2604940425750207;0.40325337602287703;0.5029782789064976
0.116447422703823;0.26212605543543244;0.40202681396305356;0.5018984506577235
0.1165426389947677;0.2634808000349748;0.39987535698037957;0.5013070041967886
0.1163442578702172;0.2649462609061746;0.3981035737142795;0.5004365215900543
0.11639515296469255;0.26688167194442225;0.3967576846717819;0.5000730010853143
0.11636639310820347;0.2687030186855141;0.3949086888754433;0.4998498578048305
0.11617742939914824;0.2705063888456971;0.3936020963380128;0.5002106071778282
0.11561741176953072;0.2720979155266386;0.39167458958188334;0.5001197432726303
0.1151723658205278;0.2734282913429184;0.39001339862045803;0.5003664020506624
0.11512020593952094;0.27461596018371603;0.3884331571484085;0.49991394682836754
0.11515151959169485;0.2760741954726993;0.3873624455972479;0.5002708208832874
0.11498115497123067;0.2767679104789104;0.385952050231769;0.5008857488051575
0.11483118727230943;0.27694985920627224;0.3849773581925405;0.5027100705867854
0.11498747597123064;0.2768331956606691;0.3845872989199024;0.5039230574599465
0.1150359872458302;0.27685078325040424;0.3839948350451068;0.5048253958953828
0.11464372453579424;0.27600557953121496;0.3828303261457934;0.5064184716819145
0.11434393667767065;0.2745598198133333;0.3825470922415763;0.5075600950254907
0.11483913864955687;0.27203048673095354;0.38231024960542054;0.5075843896577236
0.11496631183000802;0.2696964771402376;0.3821156721513506;0.5084090335802471
0.1152538578146435;0.26712788723373226;0.38113594388590444;0.5092352777191814
0.11565353554233233;0.2645750126528234;0.37929432984667594;0.5101903890768147
0.11555961678979883;0.260946625203984;0.3767592738561562;0.5102364300755069
0.1160560822471378;0.25752345803824356;0.3753424296462837;0.5110680828564811
0.11637892015495081;0.254919767040205;0.374818801563577;0.5103875844396782
0.11675784477083834;0.2522209245959422;0.37426703993003657;0.5104496264851179
0.11684003903170792;0.24861328312029657;0.37276552844523764;0.5100058881065628
0.11654048776495408;0.2443089663177468;0.3701741851317365;0.5089011467505641
0.11632620498659513;0.2400338019391918;0.3678748014138548;0.5069313508149644
0.11657173216998838;0.23632736609970184;0.36693575778325666;0.5059981089509566
0.11703174385485272;0.23258389799378487;0.36595507427295915;0.5048613060042417
0.11734198933801714;0.22892534898790068;0.36442308286269437;0.5043924467747551
0.11752032535893901;0.22488306535501423;0.3631550714939465;0.50398460207518
0.1178035187701845;0.22160045902876388;0.36213164972768297;0.5038899376734148
0.11782237634847807;0.21869087690682862;0.3610676155825375;0.5026244634174487
0.11741536580058656;0.21593294352467765;0.35871773621378955;0.5011340994720417
0.11706896033082521;0.21256325286988853;0.3558287096551104;0.499128244996396
0.11708997139228322;0.20953349976331775;0.35411665709773865;0.49592437483229024
0.11664871231513382;0.20617391163124857;0.3521339147914294;0.4924371102530159
0.1150367429385402;0.20346053182052617;0.3488792082239236;0.4887106547538333
0.11409502951291092;0.2003010820457632;0.3441604852075786;0.48428495247008047
0.11339764704053432;0.19693744566001634;0.3386981428904815;0.4789518309898581
0.11292921653219828;0.19373797350473687;0.3334089104507955;0.47290030659691945
0.11300912421477431;0.19108763945897034;0.32902560148413984;0.46763032460018844
0.1130305908891777;0.18908243932559346;0.32423887132428364;0.46134316793689994
0.11250309947106722;0.18679979381627676;0.3196491424844667;0.4560474564563508
0.1120541997463206;0.1837782828908109;0.3154890550013024;0.449795362670473
0.11218717518044939;0.18060539755736862;0.31169646744393076;0.4440232341026405
0.11233418393821334;0.17839797233736215;0.3087121001147382;0.43859455568060723
0.11293538525596425;0.17629510955867633;0.3059252975109461;0.43392037963059105
0.1134369827643003;0.1740157907950281;0.30267572142660487;0.42848276017292514
0.11438698409480044;0.17181359677835598;0.299753416013071;0.42357967664824403
0.11497893250702668;0.16951025364563296;0.29605024229813165;0.41893963987707705
0.1153801714112437;0.16758391304118714;0.29240227530172763;0.4141142098947299
0.11560960549395045;0.16512425491434832;0.28842411136678164;0.40895516479633187
0.11567791180516324;0.16290618568061183;0.28304111154723277;0.40291938948283074
0.1155566481536431;0.16080271824648304;0.27766365681365984;0.39636908205785537
0.114613982710361;0.15834855865511335;0.2713842994373931;0.39038766628243865
0.11307598290127299;0.15469506339685907;0.26431579321019477;0.3847002431578883
0.11139270639947504;0.15103971915135397;0.25616588739816487;0.3783171673850867
0.10960280200653617;0.14765079602745734;0.24778484108825974;0.370929518702184
0.10747800570545742;0.1440896868535443;0.24024050173553022;0.3642893656093433
0.10469137472245646;0.14064598236024595;0.2329276228329477;0.35842574021967366
0.10164972328898149;0.1366078897178792;0.22638312030434365;0.3530702082235965
0.0976716236433457;0.1327343787989515;0.2204697262425588;0.3481056093661268
0.09312612359365627;0.12846434491925235;0.21282949989930952;0.3433860690912003
0.08926350598986423;0.12395559466034424;0.20486097175808704;0.3380278235508277
0.08451030401438211;0.11973643711735643;0.19806454957109798;0.33214977960149783
0.07933556690225402;0.11609789078816395;0.19150193371166693;0.3247790101261792
0.07455690473553293;0.11245775169434251;0.18513200646812342;0.3164827848607332
0.06935646105884127;0.1086161170993769;0.1788061111294508;0.30749698030140016
0.06406124354658248;0.10468518178522199;0.1726906664334718;0.2980459522301352
0.05882455161490553;0.10090079641255122;0.16631297042497242;0.28752830986171435
0.05396028737561173;0.09741591351944899;0.16083419303857174;0.27626641372212635
0.0494910800581878;0.09427729028603944;0.1545906002209845;0.2649501344537382
0.04517937465348047;0.09142730414056716;0.14860379098692117;0.25404139802614767
0.04072288498332693;0.0886024408754479;0.14453676769041907;0.24327619015723642
0.036840599352074975;0.08592107518404558;0.1413983724798928;0.23318473006962626
0.03336149408270599;0.08356583937201555;0.13785027010493373;0.22393613891565453
0.03040469690813922;0.08229699021510158;0.13463784215233493;0.21537767946583444
0.02788197013631841;0.08156224710983845;0.13264142676331897;0.20674788051519713
0.026297881536122322;0.08053554820921735;0.1313208164485103;0.19991694884210148
0.024953267609675804;0.07983551156521607;0.13023304385746753;0.1942681332791726
0.024135671996403513;0.07984344976887736;0.12923762169565003;0.1905498827950276
0.023242284094801703;0.07997532444720361;0.12742240939653265;0.18763831323929056
0.022963366192219184;0.07956208887871719;0.12404520276560754;0.18468124149296833
0.022244621546583403;0.07965998982118203;0.12207129930401883;0.18215252565805504
0.02097619066296133;0.07936267114449028;0.12144539387969719;0.17934298904314822
0.020835620385092752;0.07880472484014248;0.11992415370839937;0.17625700219483176
0.02047444010297442;0.07754147619189143;0.11780780653579398;0.17268197251781325
0.01858411157535107;0.0750111905266414;0.11477667100195943;0.16817398635926478
0.016783628523046445;0.07225332556456236;0.11163774479666366;0.1627193461840443
0.015275784297482605;0.06912659970513126;0.10825107195128941;0.15753063229094214
0.014123260690094622;0.06585099015004797;0.10504308849133526;0.15324487580091278
0.013240408058515719;0.06257202324256189;0.10182667368061288;0.1501557052631555
0.012678059656096658;0.0596074030898977;0.10001597307387873;0.14819253471101437
0.012514156866296094;0.057485244667864414;0.0990242921565856;0.147006427603136
0.013466507627002234;0.056240491942137115;0.09802966700719042;0.14734765287773566
0.015492499088590983;0.0560479116508655;0.09697972576103157;0.14973158828538521
0.01873455142203326;0.05688824398496164;0.09744026593886747;0.15298854448446986
0.02290622810166708;0.059440573508008375;0.09902324336809269;0.15648367348479666
0.02745332066753823;0.0628354317263804;0.10112252216246997;0.1610313393906482
0.032245722256619584;0.06783500090683149;0.10447647867342119;0.16679855465478674
0.036977060626348195;0.0734765268793715;0.10801461713304851;0.172998654548216
0.04197561819287313;0.07916802449231683;0.11226644655737014;0.17880445318894814
0.04707635424517773;0.08487329296534718;0.11658096163157733;0.1845103710140543
0.05154142283785498;0.09060611122033238;0.12106572283948842;0.19018271446354754
0.05605040094736785;0.09586321203530451;0.12493642995946223;0.1946785537796638
0.05995524227002223;0.10005313050800793;0.12860854958907972;0.19807810880418159
0.062258331124876706;0.1035726759692697;0.13157532481562428;0.19911102469826453
0.06324142661555987;0.10635330193004114;0.13393911570676512;0.19846395754265808
0.06445894785550753;0.10899613877606917;0.1364155682834241;0.19731521708924185
0.06509217617195079;0.11110875842824305;0.13880748094017464;0.19606803824517516
0.06588793547956763;0.1129330777165725;0.14102392050996862;0.19494895901503456
0.06614685961163691;0.11421909708205137;0.1426016667629924;0.19342028520660043
0.06683204003857379;0.1154395533814956;0.14422885908368535;0.19174999722915684
0.06740372090585066;0.11621364411147263;0.14587276259169452;0.1901290218620434
0.06828474507616772;0.11690624901634349;0.14765800172376375;0.18910072767930403
0.06968604962144392;0.11740492540372496;0.14935737411539501;0.18835928866165116
0.07114523110035859;0.11808280454560136;0.15089516679012524;0.1877060634141847
0.0724281947152654;0.11878581366655588;0.15180857629355776;0.1870983482605397
0.07369508824321569;0.11913160712683703;0.15265767729715365;0.18681854801732295
0.07505628464007737;0.11995298391565688;0.15369844128636578;0.18664245679143218
0.07637377044001196;0.12017768043739599;0.15403337347139354;0.1861970333677643
0.07819311012487627;0.12050965915789287;0.15429352803922614;0.18592998421509996
0.08016680627067552;0.12057109348316256;0.15394365408597344;0.18616703233343931
0.08153728570153525;0.11999400065347962;0.15318623356456113;0.1862766410310529
0.08240526324681142;0.11946512677999155;0.15221676172409038;0.18567710531219045
0.08280437718960316;0.1183874103736496;0.15136316860019372;0.1844647101117982
0.08285585974370578;0.11747870127002097;0.15025807640568567;0.1826403036234033
0.08228253336874665;0.1162341157688768;0.14893404013827805;0.18025342364334448
0.08177861209218565;0.11501853448904677;0.14748235969957257;0.17731553847825784
0.08079973820921733;0.11362296395815431;0.14593721513795116;0.17417524830271033
0.08004009671624575;0.11214959565740243;0.14406833059659777;0.17037210758319415
0.07847180566263341;0.11038760669270811;0.14175132896632645;0.16580182890617556
0.07670379158581092;0.10806608779437532;0.1390202164475295;0.16077207230630636
0.07395260239261058;0.1053431149839798;0.13559854730336474;0.1553365761252015
0.07062102202059357;0.10232042894409749;0.13195658508139677;0.14973690917194885
0.06654297947302905;0.0986686526341923;0.12781918765511377;0.14399538493723169
0.062022181283424654;0.09452435813729794;0.12363679728701965;0.13835920044556788
0.05690541762798177;0.08995879113272136;0.11907158192677127;0.13241564991336788
0.05159707427557908;0.08496475461882798;0.11498840137463008;0.1271305818538714
0.04591736475514766;0.07964945693036778;0.11071435450571872;0.12166115292873254
0.03992022592219582;0.07392562841353231;0.10581738124975279;0.11638214990813765
0.03462644619516095;0.06837563767603648;0.10105664715854658;0.11162037277574151
0.030098311068649096;0.062477039866621745;0.09605772609153128;0.10713056805818684
0.02546767887283355;0.05688032195161694;0.09089591080777852;0.1022516325197757
0.021260978378881346;0.0519545654998354;0.08599038247531703;0.09738475558057998
0.01771987945112724;0.047839167216082605;0.08148601940895556;0.09273848314416291
0.014492956251061933;0.04400559613076069;0.07686226556063919;0.08792074134651673
0.011782642724092405;0.04043103720267969;0.07261019112977954;0.08319049072016835
0.00993434081497185;0.0375525027169001;0.06866888221346708;0.07856992535305501
0.008484276559986629;0.03499222659104206;0.06521634073422561;0.07464206280189459
0.00790713755900597;0.03327865169761291;0.06233759584504618;0.07073747946191429
0.007040106423667675;0.03199259115985551;0.059658629312192374;0.06745657559234915
0.006631316131088439;0.031070338352729054;0.057325105232100895;0.06438290777966535
0.006623662422360121;0.030836953350113865;0.05521645147858674;0.06179127372343788
0.00691196877182074;0.03097287709970526;0.05393010581235599;0.059907360638442854
0.007005268089898558;0.031129668850931175;0.05261951929715499;0.05854186524125427
0.00736990338803521;0.03132235333703776;0.05192161117293144;0.05752866573782181
0.00781931259725391;0.031708361738476146;0.0515594771523365;0.056978215257599565
0.008204621386727593;0.032016515457338524;0.05156306309218614;0.05719465803072806
0.008877182992481098;0.032524699795684384;0.0516603999405026;0.05766458091892684
0.009706725937888077;0.03319116090977395;0.0517187671889498;0.05842820715756691
0.011014818089571627;0.03379559064465462;0.05199680600522963;0.0592516313886882
0.012291780405361094;0.03444134649068273;0.05215311641909038;0.05999648373520666
0.013454934376266606;0.03577590910330121;0.05260342373618748;0.06088411781987486
0.014306879967636327;0.0368408162961747;0.05297886026086873;0.06159990808368655
0.01508195787250719;0.037806811440339455;0.05311265718273863;0.062161546501143236
0.015449925059496382;0.038077745851584945;0.052934077314481034;0.06231535507355249
0.01601092029029074;0.03823838513174184;0.0528524961170309;0.062381984134356694
0.016432243347498956;0.03836599693429168;0.052708716836873976;0.06251339786008406
0.01667459521281441;0.03826361900032632;0.052247034061457184;0.06256767089179376
0.016884265511604855;0.03834106506570716;0.05201978589277462;0.062641137051323
0.016758391863026877;0.0381078990915326;0.05183036399149968;0.06257753149689346
0.016812886145472116;0.037821568301078204;0.0515411928211826;0.06245804276495491
0.01691180435926747;0.03766538234684481;0.05120298043837777;0.06239269320889083
0.01686705202745968;0.037656874022228906;0.051183886529257136;0.062346538828047415
0.01634303640634167;0.037493662865314886;0.05094198871918849;0.06216435213501046
0.016050073780973905;0.03724239008728285;0.05091591344949252;0.06186376349918176
0.0157207352373322;0.03729206457469704;0.051369861474337225;0.06168910424288885
0.015375453618175605;0.03734353965021192;0.051744559025497724;0.06153174310003172
0.015034637256292649;0.03767783190683173;0.05229360146158796;0.061528532251061474
0.014554602257927174;0.03806675533474934;0.05295707819352648;0.06118538231840375
0.013823195846681681;0.03810305899640349;0.05337643552598807;0.0608643160199402
0.013152107227852008;0.0384406149666552;0.05374767355933229;0.0606023844455695
0.012684214079764406;0.03894136705720767;0.05417955477901192;0.06025525118698828
0.011990740834259352;0.03916316073259178;0.0539823797084006;0.059912655493624435
0.011672839223275387;0.039641554882967715;0.053941827086628785;0.05974015232657639
0.01152564672311195;0.04012492748022172;0.05389794348414431;0.05944838387250643
0.01177814739261179;0.040820239455703886;0.053661256605752675;0.05935310493069538
0.011771252047727845;0.0412239357198425;0.053186118502124055;0.05931829900065288
0.011781082657731123;0.04170326536155546;0.05249700492481121;0.05915356156750482
0.01199764679993446;0.04225337047956788;0.05197832013468373;0.05917313653644893
0.012402441444262672;0.042737386322980755;0.05183864017848892;0.059358183364170404
0.012951629895390494;0.04316387135959402;0.051463718111146674;0.05991779982379774
0.013724187141222461;0.04386624537593923;0.05149248989898584;0.06060152305818806
0.014402101793723272;0.0445159294746643;0.05172729591958082;0.06126525264498113
0.015066166102320847;0.04501901542366724;0.05222958687806399;0.06209139383981603
0.016167646423340776;0.045724589379208265;0.053172338896043725;0.06304191495325179
0.01703612257600504;0.04660188672801507;0.05444796951585412;0.06404507137626582
0.01817677729879025;0.04757446888558288;0.05596709906374557;0.06504091025498433
0.019235063254004352;0.04889116078391566;0.05783739796436667;0.06593038915625926
0.020243673168028522;0.05027811876005161;0.05982903060477201;0.0665944519375603
0.021077169074207;0.05132377114579857;0.0619186303576324;0.06725070348316346
0.022196731255311908;0.05293120507878317;0.06419820649689355;0.06817068828375186
0.0229691335429876;0.05420915925727285;0.06641800534651758;0.06870440203236251
0.023777319182739124;0.05530513068911328;0.06846746486891048;0.06935630327754067
0.024456884098724724;0.05631121852925711;0.0706343456407313;0.06991667842203231
0.02496943154952563;0.05739974156292823;0.07251805155704379;0.07016533843151254
0.025432301717227476;0.05808059585191153;0.07386090719221863;0.07040082736678549
0.02539748880254947;0.05833906380843326;0.07492033965478806;0.0702950097401101
0.025423197144491264;0.05858441629878957;0.07565292472638009;0.07033599348806698
0.025363483027459548;0.058528017396860844;0.07627564516018195;0.07064668844589629
0.02509820931546215;0.058393505831316535;0.07679413408564778;0.07116700581693258
0.02443303457567791;0.058055759588753614;0.07691603444230027;0.07173677479993357
0.023519576575024112;0.05767869634945973;0.07698750485419958;0.07246651625171519
0.022321213667538024;0.05692756730402005;0.07673733805982233;0.07305365295390545
0.02113898256358251;0.0560898346547883;0.07663729407159088;0.07380579143478153
0.019924694437724415;0.05597362009839732;0.07666764043445456;0.07491125877606954
0.018626386197776748;0.05574932375351338;0.07684202045603027;0.07597149673422576
0.01788011235174867;0.05593445139097661;0.07731320255606294;0.07694516684929603
0.017529454275906905;0.0563355680565536;0.07797588803040094;0.07777674010101225
0.01736591261784873;0.056938933542333266;0.07869676638868796;0.07867741267701749
0.017809701131088356;0.057776113133702976;0.07994289646158761;0.07969930616148953
0.01878038288198734;0.058875883075514016;0.08145338078489583;0.08086084458417668
0.019656646812356734;0.05978712776887786;0.08270775797875002;0.08156278629486642
0.021117834278522134;0.06093339554004489;0.08413594986106447;0.08247716793756009
0.022506260786204366;0.06203245451977679;0.08544534348316318;0.08333933679143392
0.024103408935599577;0.06340763155737078;0.08651034782968163;0.08415647289767776
0.02590355997842401;0.06458492302549759;0.087260614842104;0.08511637391663818
0.02762386166623047;0.06560928014775973;0.08815238886498729;0.08610670313435637
0.029560379798953564;0.06652709113304904;0.08852453278783788;0.08711718555181305
0.03137091382020231;0.06725331179699148;0.08899766058221513;0.0879844571065695
0.032768767437724354;0.06757593438280383;0.08950996184602684;0.08894750759038772
0.033853818226871106;0.0675638011265109;0.08995876337463095;0.0897279293805152
0.034723345528276765;0.06724612129388587;0.0904638821225878;0.09020964152467999
0.03529588087904497;0.06653887592742626;0.09092422233376789;0.09040466366721023
0.035680928833278364;0.06571188184864238;0.09172723762569338;0.09094839647891341
0.03597068855671737;0.06540477459234949;0.09308180322883164;0.09183297196011642
0.0361617838381819;0.06487180462405925;0.0946597572484459;0.09279766005001508
0.03641252407355293;0.06462302958744601;0.09652063348937429;0.093603971555409
0.03716153892873434;0.06526329305622666;0.09884422487806338;0.09543057818568032
0.037628495813664044;0.06642835584635416;0.10164323327296367;0.09782026786956395
0.038104503555736614;0.06835180580091446;0.10497403286792927;0.1007346102111788
0.03840852345701153;0.07089244220823708;0.10827867740372525;0.10387120242301272
0.03865537153677613;0.07462957428800167;0.11156946371918779;0.10770676077051183
0.038937961978423724;0.07897982879208791;0.11506569642399321;0.11195496526511785
0.038777016777704544;0.08365279870218917;0.11826351762275092;0.11629426067113283
0.03873253000522989;0.08849892531186544;0.12094687571264952;0.12030170529192387
0.03869268979993402;0.09290377018404582;0.12358843642137783;0.12457262735828532
0.0385841375263152;0.09660582810983849;0.12586882707845526;0.12853336943510782
0.038793147951617576;0.09964309282772006;0.12768693407649379;0.13203656134847816
0.038646053648250474;0.10188696314449021;0.12931984573847477;0.13536351686792888
0.038264266665249486;0.10316493088950489;0.13092827082346986;0.13855009772245644
0.038219091163778425;0.10367034239882161;0.13211508869434266;0.14117516049166198
0.038117857695324685;0.10289545645701055;0.13311206807518602;0.14304438177214576
0.03811932926511872;0.1011720131882953;0.13336538363125006;0.14462570716933437
0.03824906067211447;0.0989526907943757;0.13374231358940636;0.1460559990902235
0.03817745534292192;0.09630632321477456;0.1341104519032344;0.14720362626707864
0.03791778165544235;0.09380097420562128;0.13440448107943576;0.14869041764857582
0.038203604203987614;0.0916310135014696;0.13512198411049164;0.15061227018077583
0.03847021710918539;0.08989472838672627;0.1362110070147087;0.15285011083752637
0.038832328203660685;0.08880644698888383;0.1377241195207564;0.15520986882314244
0.03905842153056489;0.08844757009643535;0.1391551471811029;0.15704370268878481
0.0390989580075181;0.0892427073252683;0.1411715711477586;0.158718751257925
0.03884940970545858;0.09061681600653668;0.1429748289950943;0.16020094536057283
0.03793242399084596;0.09191753687348665;0.14446551795717333;0.16053637704151436
0.036502385871199014;0.09341106318306495;0.14567768617227633;0.15993208624419494
0.03489698684406598;0.09452586808237845;0.1467311927969902;0.1588332950506676
0.032891645749590664;0.09563095047891325;0.1473958652016976;0.1575425679862675
0.029944769025497864;0.09660499056456213;0.14753858213991267;0.1555339869643649
0.026916310472049055;0.09746684117227705;0.1470244745462546;0.15302531542301157
0.023380539664268778;0.09823788448937414;0.14614930620463967;0.15038423422621527
0.01958127326217663;0.09899065261621295;0.14502027451683322;0.14765165230434543
0.016022990888852066;0.09948169067832473;0.14341753465870966;0.14479227001045852
0.012380399130434337;0.0993712438018945;0.1408744260339957;0.14139586277083777
0.008704754996403666;0.09910050820169833;0.13777975324256064;0.13820035154004343
0.0048034894020918635;0.09852362953644822;0.1343328747727993;0.13557493925694442
0.0007327879859428731;0.09754090006603303;0.130891942736513;0.13333893000424749
-0.0025654102281793168;0.09659588167930536;0.1280127719999978;0.13196738080843196
-0.005071292121608469;0.09544690200947861;0.12566852697940292;0.13094836791042608
-0.007283425391631289;0.09361862727557868;0.1230977026283078;0.12981985580843197
-0.008436628750572057;0.09206113386956366;0.12079491980647064;0.12898418429650002
-0.009184414006864927;0.09030745957273466;0.11868272822556185;0.12814008189244644
-0.00939771810591688;0.08860714745995274;0.11687785604543768;0.12742881786040983
-0.009172328766917193;0.08643949370709232;0.11464713403955343;0.12633705552108326
-0.00882914940339969;0.08373614583916167;0.11270287468486241;0.1248464898012402
-0.008089380383131624;0.08122618352925648;0.11075788562569276;0.12349082828734682
-0.007241048769205504;0.07797731400555599;0.10869606609806941;0.12213831441680092
-0.005936191929061684;0.0757692146855168;0.10657805477083836;0.12084418368290097
-0.005148824748610568;0.07309540195521283;0.10487437942203161;0.11969429438182223
-0.003735013461915586;0.07115614066655644;0.10341600752664101;0.11878183338312986
-0.0029483012209871847;0.06978002251585366;0.102454744929387;0.11815259247466309
-0.001907479347826051;0.0692533057600511;0.10175727530663448;0.11857085743412694
-0.0012781526626348292;0.06842876359725285;0.10083853184864168;0.11883893230271146
-0.0014318854190911862;0.06764732492088804;0.09939885479143347;0.11872849555083174
-0.0023387304991827106;0.06726761363288544;0.098593425932983;0.11968089977737636
-0.0035931526502124486;0.06668146439228397;0.09740563312127985;0.12053393296207725
-0.004930644293559934;0.06615537165151901;0.09683475122000496;0.12149207094409749
-0.006370335079764543;0.06547730556881229;0.09625333984144989;0.12216456115854668
-0.00797770764073214;0.06476294505361126;0.09528016108891645;0.12224063167832439
-0.009102788692709878;0.06396368810722358;0.0938915279669812;0.12183228807289782
-0.00977273158711978;0.06377047151879603;0.09291812898234576;0.12189226156063895
-0.009844072850931458;0.06381114214285621;0.09226290272964886;0.12236516362177008
-0.009348183093167473;0.06377382058744596;0.09197439826217584;0.12263835927590541
-0.00843532858646593;0.06442671856750481;0.09244279731349984;0.1234601211827377
-0.006658246438378342;0.06509298383066271;0.09335724928636682;0.12462777171264945
-0.004238202232428713;0.06638823861229068;0.09499655233801765;0.1265276869676347
-0.0015693229895389087;0.06752806443543546;0.09752558536776589;0.12876975512389488
0.0014562023311541017;0.06943947354952504;0.1009345637283412;0.13196336943281933
0.00453894387544958;0.07188716061588656;0.10553631706080271;0.13557484579731752
0.00785983752598893;0.0746752434373968;0.11018777574599384;0.13968766800849752
0.010950347167374955;0.07763456764596166;0.11450304719614089;0.1437858224749898
0.014073418054266061;0.08039513999248007;0.11866443223961907;0.1483477654253003
0.0164324099529257;0.08292197777770396;0.12184899204805313;0.15206459082085433
0.017988092581562472;0.08481610656423547;0.12359365061817404;0.1554918087361861
0.019520455380189435;0.08668600991467677;0.12524885557600338;0.1596908486809392
0.02066138094311846;0.08717780594017528;0.12518863136776537;0.16188244234782373
0.020898729319712102;0.08769766784145015;0.12468372047433612;0.16397466649852652
0.020862280740764703;0.08755564215822036;0.12286624140045575;0.16412388031676775
0.02040077758973495;0.08653615876626218;0.1199961866194816;0.16309045259561697
0.020202127849296897;0.0856832816976123;0.11693799383131558;0.16166143767734306
0.020198982717881394;0.08445969058058063;0.1138757585527932;0.16025767791336787
0.020151401984962135;0.08334652848806676;0.110835290178161;0.15818911635893831
0.020445999798299818;0.0830931744759713;0.1081194376237315;0.15584104559561704
0.020954592602157283;0.08371823113370255;0.10626621375841608;0.15408889312389426
0.02178639640176499;0.08464186767767118;0.10538556026217549;0.15244078159594399
0.022380453274272336;0.08531031328342463;0.10547784081856647;0.1514451938198734
0.022800267420071605;0.08606869798528798;0.10565135101536287;0.15077726642628075
0.02296191671330471;0.0876528849280797;0.10703131836057374;0.15056364811343342
0.023898459274926148;0.08953111529355859;0.10930974453187152;0.15075783430074952
0.024298837043804884;0.08979512396240462;0.11107438989506214;0.15096265207420492
0.024888163243870276;0.09035440986694857;0.11325593564857635;0.15148763928734643
0.02547815455508311;0.09029766927590575;0.11543024774893591;0.15284409287119738
0.0269278634697611;0.09014080204053469;0.11785760789996562;0.15378409089833042
0.028224209600195886;0.0891615276296161;0.11965680529911568;0.15538648833899732
0.030014315186662057;0.08820665966819081;0.12264971470872656;0.1573348029924788
0.032098238919254375;0.08654431694867465;0.12516688811310703;0.15825306026315547
0.03479431256946683;0.08516819714972076;0.1274166974007827;0.15994946198561377
0.037773348924157873;0.08330497679077996;0.12899150929682712;0.16044899695030812
0.04095022213370342;0.08079497690388884;0.13029911485485257;0.16061169846125936
0.04496538051814272;0.07925559941778226;0.13184933661719317;0.16073894428505797
0.04903906865478863;0.07762618122327429;0.13224367392611763;0.16032928240012828
0.0526171221216078;0.07687506107453287;0.13168247432559457;0.1600522361268363
0.05623375296338612;0.07694019607976335;0.1309933333131722;0.15919737268911158
0.06010155346976069;0.07642991852337243;0.13072813744393388;0.1583681255040838
0.06386362432265372;0.07639780632722991;0.12928926645766387;0.15699327462830742
0.06689861899084587;0.07605032516737378;0.1280947657466472;0.15623904276201125
0.06944248879601092;0.07677317479502986;0.12627517362928858;0.15601887781496976
0.07115575677508901;0.07705924782673959;0.12496260295880804;0.15468178152173667
0.07334836484896928;0.07672284623013942;0.12315926553252499;0.1536610732252346
0.07416398622817814;0.076497247344229;0.12120365097678784;0.15322799208826177
0.07536788011801139;0.0772715787940492;0.11968862306341746;0.15316253157829118
0.0769872800460924;0.07850142356194716;0.11819564120529392;0.1539697202013706
0.07849602666230675;0.07939592813664474;0.11715382558777189;0.15422643761882723
0.07900618485321877;0.0800218260019602;0.115903184406667;0.1549305721811025
0.0788472759741733;0.07997481756619691;0.11557588798136464;0.15456681475220418
0.0785032836874783;0.07986134411604984;0.11587297665903709;0.15521058392121367
0.07752691650441197;0.08000751788689002;0.11571719559431007;0.15572153935991911
0.07655774234684411;0.0804742105469096;0.1163191788679289;0.1557710667750875
0.07568262335501673;0.08151150202320903;0.11692778504053436;0.15583741457534903
0.07451089645276106;0.08329151552533393;0.11842162201732415;0.15698063722000413
0.07249284080385619;0.08554235909708935;0.11904606686531365;0.15772049383294945
0.06973504091467675;0.08807224429486629;0.12042578950833417;0.15802617914775813
0.0666648082657719;0.09017421052173777;0.1225171026371344;0.15675379274239695
0.06383325906701418;0.09076760741614769;0.12433919372311011;0.1546822778332763
0.060995860086955365;0.09242990642039736;0.12456326252958277;0.15226402233605502
0.05693448989506266;0.0934409281784882;0.12484313221771612;0.15001318858090631
0.05354511831415394;0.09370898183654637;0.12287252700915127;0.1471440163141525
0.05056019371559236;0.09293294577737667;0.1210058374001287;0.143216705930367
0.04840376564661562;0.09171876628930867;0.11744104832788288;0.13991999538051417
0.04609362601536363;0.08996465560477128;0.11392698355279306;0.13755338132167144
0.04512100312683802;0.08746772374599396;0.10959532950800722;0.1347984855462547
0.04453703613631827;0.08424886079764483;0.10511048701765091;0.1324396783465163
0.04387029360215678;0.0801055083710349;0.1000884331435091;0.12976604062307728
0.04313510528767493;0.07528731647662502;0.09481823912977919;0.12764828338672554
0.04180926434978675;0.07048838227034848;0.08894003246975969;0.1252538263491316
0.0411774313370375;0.06629457171984185;0.08370720477345384;0.124773628521737
0.04141198374468707;0.06317558332821063;0.07899117163321198;0.12322148007355134
0.04162948074501399;0.06075495599149933;0.07526544226707939;0.12262505804609143
0.0414550047355338;0.05973656050670041;0.07322179956848511;0.12221301006864782
0.041437426988230774;0.05919066789081289;0.0727779396956509;0.12180729880254786
0.04041684083850866;0.05896738962438598;0.07240180978031911;0.12030307846779796
0.039329445827393936;0.058828981555409214;0.07293824139555294;0.1186416403121916
0.038752943974500825;0.058104018049688406;0.07418723775678213;0.117182046204967
0.03779895600065319;0.05737093766655666;0.07508760328636699;0.11470276211179933
0.03679699066328806;0.057637757225235994;0.07562278521739023;0.11253862175776208
0.035397976765935986;0.056533298871198755;0.07678438424877308;0.1105259175550815
0.03464328178424265;0.055001865970904576;0.07818074854233306;0.1076699207283408
0.034776926687805895;0.05372969305491896;0.08192861912324184;0.10595823818469909
0.03455852237234333;0.05140044903203569;0.08436792678522283;0.10418150642922344
0.0340937875315457;0.04922440648774018;0.08855208281693251;0.10279025713729799
0.03397805655442903;0.04626610860182978;0.09189691491173471;0.10020548009806952
0.033945495629943916;0.0429631949385412;0.09596195091533061;0.09826800792415655
0.03406635325433101;0.04046647097057787;0.09979766708401308;0.09645399962438542
0.03479309395259841;0.037857746970577914;0.10341145680222155;0.09572653262471235
0.035039814424321206;0.03659365476495519;0.10496559465282629;0.09397903546616386
0.03625711833671087;0.03489795715102913;0.10751100309382007;0.09247552633605605
0.037608042032036125;0.034164253627655516;0.11097537150081577;0.0907827154844706
0.038732263880679435;0.033888663702843505;0.11400283058744531;0.08974860189015879
0.0401637708251057;0.03463810562275199;0.11693570029878883;0.08912959244099238
0.04102885229748231;0.0339811643321342;0.11745850002353549;0.08787265430957691
0.0424981935073548;0.03469034333474944;0.1186407971572393;0.08705692211964562
0.04456942416998962;0.03625577297090505;0.1203216349990176;0.08821215467570968
0.046781302581562004;0.03755491329454022;0.12270109324811852;0.08994248150670021
0.04841557783393202;0.03836741895782893;0.12380595408826228;0.09148669857600385
0.04990197266557632;0.04037138662340591;0.12475547893265584;0.09334571110624247
0.0516357480290938;0.04330917753873767;0.12592201287512061;0.0952572722497534
0.05295019632853805;0.04724356068551761;0.12657504034259362;0.09710840459463732
0.05505424534619084;0.05121555529323249;0.12704866931546058;0.09966425655737021
0.05575793161000251;0.05452122921869827;0.12588782900261322;0.10080841714154805
0.056548149347498376;0.05765880804740041;0.12525377557404177;0.10111433920725578
0.05757921498398085;0.05915775096894336;0.12392966662536573;0.10153403622033196
0.05892670768682484;0.060989074382804064;0.12361793820398621;0.10241144463615405
0.05962165470970811;0.06392625159921461;0.12208052569728468;0.1030414941699886
0.06023340732919158;0.06580415244720414;0.11892996284962208;0.10332841469695818
0.06006238327688688;0.06825606642301317;0.11552271805393718;0.1023886646211164
0.05933243686106472;0.0703425715923495;0.112630608740763;0.10219620767276721
0.05758330718600754;0.07228302282347075;0.10937119064236484;0.10091613446420232
0.056236195682901946;0.07405804691990743;0.1062569597799915;0.10003865757731116
0.05366320215364405;0.0748469160454386;0.10159349779437535;0.09799493071461098
0.051442309340960175;0.07478436568878605;0.09692404630957646;0.09468600722850445
0.04969358529127077;0.07592591034095994;0.09437772316508483;0.09291561844197292
0.04766172311180038;0.07592980050343127;0.09161170611245333;0.09200447696109687
0.04570901299411488;0.07495203340209096;0.08855412377868419;0.0908991970951276
0.04372204533867193;0.07417620725236879;0.08444217702353551;0.08963645191042671
0.04143263157110084;0.07411594194050215;0.0799254386505379;0.08737228046060656
0.03951672062471315;0.07366559234226747;0.07570793559431044;0.0857324233154611
0.03790482314579848;0.07247387935697812;0.0720213551117999;0.08455896958809922
0.03573974894507935;0.06997503944164633;0.06784818339162994;0.08232979864596127
0.03299246178685778;0.0661518987629932;0.06361436469826622;0.07980299529486619
0.031428874699574415;0.06168246553971769;0.06107801438541896;0.07761426162275117
0.03021394019712268;0.05612787058940723;0.05933184717391199;0.07671615884962275
0.028346545571754984;0.0508773184230131;0.05739484923961983;0.07479775487152542
0.02716924853873767;0.04760546998921127;0.05655376085485357;0.07367703888035186
0.026089316909773983;0.04399394829421297;0.05602308682706675;0.0727336903867265
0.02484212020071878;0.042006461774762256;0.05757397946453;0.07230177811376151
0.02271334900294178;0.04091899435272896;0.05820223062896282;0.07185577036286254
0.02171279556456326;0.040331689179469735;0.059488462687805596;0.07121174304707306
0.02314267591892742;0.04033769947499119;0.061796258241908236;0.07131788439751438
0.0239933618012419;0.040504627107550865;0.06324752572997623;0.06971310015429769
0.025035072525988574;0.04158802816672057;0.06417728376168597;0.0682922405132386
0.026925800188296507;0.044530221286367494;0.06677314856129365;0.06911901066917192
0.030276461138933924;0.04785571597548155;0.06979676912193433;0.06962417831448088
0.03352623127394532;0.051624448326576644;0.072955434092186;0.0714585386708065
0.03683666456260169;0.056251874864334;0.07545317763680834;0.07414427146452987
0.04024283284471995;0.05969931909218618;0.07734492427557911;0.07705532748087504
0.04203288585779608;0.06326544274305242;0.07953313979110699;0.07978947531905745
0.04201015498496185;0.06558729516116285;0.08028724916018183;0.08268623415429766
0.04123739428702134;0.06645789990617751;0.07842902752566075;0.08538036944851136
0.0413640701928729;0.06605431242432067;0.07695437030009684;0.08859566192611831
0.040670232562601626;0.06463904260902155;0.07563383946354899;0.09065633987937093
0.04051438622392886;0.06292693709153215;0.07315496047139475;0.09175213934194038
0.040617525278194934;0.061351388898004844;0.07143137606211068;0.09203213428375136
0.041447881131088035;0.06096575388492867;0.0711501763589397;0.09324349658842604
0.04146429145439628;0.05891038633246052;0.07015905328211722;0.09334450893592518
0.0409540830323629;0.055020639074533174;0.0680182809225226;0.09038130569728513
0.04120824100751816;0.05167731250441229;0.06632546015004798;0.08626910754135189
0.042125574329191916;0.0478517957155925;0.06457330172834157;0.08124293822098586
0.04459546678130038;0.04469195600686419;0.06513585664073121;0.0755921771503746
0.04515200944230067;0.04168468867080672;0.0651669051833922;0.06858575468290165
0.04529044790094728;0.03969934356031316;0.0654338199682892;0.06240071528277098
0.04681023557273544;0.040679040977116034;0.06742645805655338;0.058911308778030934
0.048327949640404606;0.040879885811375624;0.06910793437953475;0.055770881406667784
0.0494528031173578;0.04226402777247402;0.07177977445112674;0.05440568901470965
0.04969604374860983;0.04425158323929323;0.07255799270872726;0.05407328357240824
0.04807376633822695;0.046334451858331585;0.07283646438758955;0.05449483696294097
0.0459166732997414;0.04853872741514851;0.07283749568070211;0.055199260077020605
0.043276674500430865;0.050741445281355525;0.07256016683318312;0.0560009917629251
0.04020567980757223;0.052819640828563455;0.07200355809014965;0.05671447086893121
0.03675559908844238;0.054650349428383184;0.07116674969671877;0.05715413624331577
0.032978342210318215;0.0561106064524255;0.07004882189800757;0.05713442673435566
0.028925819040476627;0.05707744727230129;0.06864885493913313;0.05646978119032762
0.02464993944619446;0.057427907259621394;0.06696592906521248;0.054974638459508514
0.02020261329474864;0.05703902178599665;0.06499912452136275;0.052463437390175144
0.015635750453416048;0.055787826223037906;0.062747521552701;0.04875061683060436
